Time (s),Altitude (m),Velocity (m/s),Angular Velocity (rad/s),Fin Cant Angle (deg),Angular Position (deg)
0.000000000000000000e+00,1.000000000000000021e-02,0.000000000000000000e+00,0.000000000000000000e+00,0.000000000000000000e+00,0.000000000000000000e+00
2.500000000000000052e-03,9.986386637772071140e-03,-1.993609492682491338e-02,0.000000000000000000e+00,0.000000000000000000e+00,0.000000000000000000e+00
5.000000000000000104e-03,9.928091511285836585e-03,-3.078551217011976648e-02,0.000000000000000000e+00,0.000000000000000000e+00,0.000000000000000000e+00
7.499999999999999722e-03,9.847831997819812486e-03,-3.254704852073186938e-02,0.000000000000000000e+00,0.000000000000000000e+00,0.000000000000000000e+00
1.000000000000000021e-02,9.768328045869268186e-03,-2.522027014791188709e-02,0.000000000000000000e+00,0.000000000000000000e+00,0.000000000000000000e+00
1.250000000000000069e-02,9.712300688539687171e-03,-8.804743181316992962e-03,0.000000000000000000e+00,0.000000000000000000e+00,0.000000000000000000e+00
1.500000000000000118e-02,9.702472043684649827e-03,1.669996633107833500e-02,0.000000000000000000e+00,0.000000000000000000e+00,0.000000000000000000e+00
1.750000000000000167e-02,9.761565314042271180e-03,5.129429230683166252e-02,0.000000000000000000e+00,0.000000000000000000e+00,0.000000000000000000e+00
2.000000000000000042e-02,9.912304786913654284e-03,9.497866824873812952e-02,0.000000000000000000e+00,0.000000000000000000e+00,0.000000000000000000e+00
2.249999999999999917e-02,1.017741583269377373e-02,1.477535265394786523e-01,0.000000000000000000e+00,0.000000000000000000e+00,0.000000000000000000e+00
2.499999999999999792e-02,1.058034298288750182e-02,2.068415204341281233e-01,0.000000000000000000e+00,0.000000000000000000e+00,0.000000000000000000e+00
2.749999999999999667e-02,1.113119739439974269e-02,2.664546182941370800e-01,-5.429048930842081879e-17,0.000000000000000000e+00,0.000000000000000000e+00
2.999999999999999542e-02,1.183129184588061801e-02,3.264328792826596271e-01,-2.464417417028213443e-16,0.000000000000000000e+00,0.000000000000000000e+00
3.249999999999999417e-02,1.268153926302728433e-02,3.867763352578596492e-01,1.507423487062512446e-15,0.000000000000000000e+00,0.000000000000000000e+00
3.499999999999999639e-02,1.368285265056817454e-02,4.474850169045419546e-01,8.035819297202176429e-16,0.000000000000000000e+00,0.000000000000000000e+00
3.749999999999999861e-02,1.483614508923206989e-02,5.085589537410448724e-01,1.981898813910114838e-15,0.000000000000000000e+00,8.669406087725773036e-17
4.000000000000000083e-02,1.614232973306575780e-02,5.699981743714218618e-01,7.758620145488773301e-15,0.000000000000000000e+00,3.460460794247591650e-16
4.250000000000000305e-02,1.760231980708535857e-02,6.318027064244181590e-01,1.333654609225404545e-14,0.000000000000000000e+00,-7.104656932680511215e-16
4.500000000000000527e-02,1.921702860500133433e-02,6.939725768590430111e-01,2.064954025803532281e-14,0.000000000000000000e+00,-3.162820127136603300e-15
4.750000000000000749e-02,2.098736948748803482e-02,7.565078118718977507e-01,4.631279424251111678e-14,0.000000000000000000e+00,-7.090422435775517427e-15
5.000000000000000971e-02,2.291425588044725820e-02,8.194084369932497225e-01,2.533243475139652328e-14,0.000000000000000000e+00,-1.495611072003996038e-14
5.250000000000001193e-02,2.499860127217103795e-02,8.826744627419178535e-01,1.260107327244423013e-13,0.000000000000000000e+00,-2.607199664862245149e-14
5.500000000000001416e-02,2.724131915861495098e-02,9.463058903378741560e-01,1.505714717908319241e-13,0.000000000000000000e+00,-4.404391549719085963e-14
5.750000000000001638e-02,2.964332305024979658e-02,1.010302730162680573e+00,2.262268909682719356e-13,0.000000000000000000e+00,-7.003185450387345516e-14
6.000000000000001860e-02,3.220552648212765545e-02,1.074664990164082345e+00,2.819715686366756058e-13,0.000000000000000000e+00,-1.066989111348231976e-13
6.250000000000001388e-02,3.492884300786753410e-02,1.139392675946400590e+00,2.126820098469149276e-13,0.000000000000000000e+00,-1.550647417820233831e-13
6.500000000000001610e-02,3.781418619374260492e-02,1.204485790781368637e+00,1.922496563658391547e-13,0.000000000000000000e+00,-2.166962081940215656e-13
6.750000000000001832e-02,4.086246961303255376e-02,1.269944335831479920e+00,2.312451024920706168e-13,0.000000000000000000e+00,-2.907535712527774061e-13
7.000000000000002054e-02,4.407460684081448282e-02,1.335768310301685302e+00,1.318696626664752273e-13,0.000000000000000000e+00,-3.779931259884605104e-13
7.250000000000002276e-02,4.745151144919466935e-02,1.401957711666396822e+00,1.238314181628149062e-13,0.000000000000000000e+00,-4.777108858596597473e-13
7.500000000000002498e-02,5.099409700313509153e-02,1.468512535945853514e+00,1.701959762694663421e-13,0.000000000000000000e+00,-5.899039248383654394e-13
7.750000000000002720e-02,5.470327705699926796e-02,1.535432778033790635e+00,1.746124785286712242e-13,0.000000000000000000e+00,-7.158105436616044295e-13
8.000000000000002942e-02,5.857996515194612702e-02,1.602718432077365973e+00,1.940048623071040067e-13,0.000000000000000000e+00,-8.548415344163152056e-13
8.250000000000003164e-02,6.262507481430254486e-02,1.670369491909104998e+00,1.799964261717886769e-13,0.000000000000000000e+00,-1.007898588002116170e-12
8.500000000000003386e-02,6.683951955504370546e-02,1.738385951529269224e+00,2.100409378490919457e-13,0.000000000000000000e+00,-1.173736876559678144e-12
8.750000000000003608e-02,7.122421287050575978e-02,1.806767805635533852e+00,2.301944294073420792e-13,0.000000000000000000e+00,-1.350990361847387302e-12
9.000000000000003830e-02,7.578006824444644129e-02,1.875515050195274869e+00,1.202251627052669269e-13,0.000000000000000000e+00,-1.539248557974091687e-12
9.250000000000004052e-02,8.050799915278207541e-02,1.944627677224162410e+00,-1.450548143447943420e-13,0.000000000000000000e+00,-1.761503312530802593e-12
9.500000000000004274e-02,8.540891904432278137e-02,2.014105689972798263e+00,-4.632365670044601782e-13,0.000000000000000000e+00,-2.018195934863371189e-12
9.750000000000004496e-02,9.048374139062434485e-02,2.083949094487567599e+00,-5.203971213911700625e-13,0.000000000000000000e+00,-2.307714326163172392e-12
1.000000000000000472e-01,9.573337967519193747e-02,2.154157898317175412e+00,-6.782608983194448511e-13,0.000000000000000000e+00,-2.629450194801461851e-12
1.025000000000000494e-01,1.011587474157175925e-01,2.224732331345498526e+00,-1.200118001057948652e-12,0.000000000000000000e+00,-2.987274401819981695e-12
1.050000000000000516e-01,1.067607589317765837e-01,2.295672637788304993e+00,-9.666661634711489807e-13,0.000000000000000000e+00,-3.386019617565721041e-12
1.075000000000000538e-01,1.125403289244021887e-01,2.366978847024933330e+00,-1.049820973726256181e-12,0.000000000000000000e+00,-3.836200482839340534e-12
1.100000000000000561e-01,1.184983721667845213e-01,2.438650988298183719e+00,-1.339348159024397388e-12,0.000000000000000000e+00,-4.344535062778195180e-12
1.125000000000000583e-01,1.246358035042548773e-01,2.510689086241959966e+00,-1.233910808234166376e-12,0.000000000000000000e+00,-4.927105252399254814e-12
1.150000000000000605e-01,1.309535378365834224e-01,2.583093193544491850e+00,-1.331250452860464940e-12,0.000000000000000000e+00,-5.499545584461536403e-12
1.175000000000000627e-01,1.374524902302246832e-01,2.655863307206640211e+00,-1.803870527236981494e-12,0.000000000000000000e+00,-6.088450603233709846e-12
1.200000000000000649e-01,1.441335756949907176e-01,2.728999455549889763e+00,-2.414175233537754980e-12,0.000000000000000000e+00,-6.693237818812991759e-12
1.225000000000000672e-01,1.509977093309758933e-01,2.802501661942316868e+00,-1.868228429970883636e-12,0.000000000000000000e+00,-7.311760396722626570e-12
1.250000000000000555e-01,1.580458062963632226e-01,2.876369949232564949e+00,-1.821854672228246842e-12,0.000000000000000000e+00,-7.946238101802161992e-12
1.275000000000000577e-01,1.652787818061678959e-01,2.950604339808786225e+00,-1.924702659758837339e-12,0.000000000000000000e+00,-8.603706941161918221e-12
1.300000000000000600e-01,1.726975511311165667e-01,3.025204855640855506e+00,-6.639420933642726075e-13,0.000000000000000000e+00,-9.283586804958510148e-12
1.325000000000000622e-01,1.803030295966236707e-01,3.100171518310153473e+00,-6.986281112739343004e-13,0.000000000000000000e+00,-9.995261020975661053e-12
1.350000000000000644e-01,1.880961325818355789e-01,3.175504349003412052e+00,1.734489140022939966e-12,0.000000000000000000e+00,-1.074599066077411543e-11
1.375000000000000666e-01,1.960777755186545734e-01,3.251203368602757493e+00,3.148825602620069455e-12,0.000000000000000000e+00,-1.155140944547636818e-11
1.400000000000000688e-01,2.042488738909840895e-01,3.327268597619020163e+00,5.088238878345715248e-12,0.000000000000000000e+00,-1.242897281202272538e-11
1.425000000000000711e-01,2.126103432338041777e-01,3.403700056218788017e+00,7.835945860960722683e-12,0.000000000000000000e+00,-1.339519623504819947e-11
1.450000000000000733e-01,2.211630991321771322e-01,3.480497764115688675e+00,7.306869714018314834e-12,0.000000000000000000e+00,-1.447831656251043031e-11
1.475000000000000755e-01,2.299080572205025319e-01,3.557661740877069878e+00,1.041863880121532445e-11,0.000000000000000000e+00,-1.569394910241324579e-11
1.500000000000000777e-01,2.388461331817747224e-01,3.635192005617974953e+00,1.114885338187973025e-11,0.000000000000000000e+00,-1.706686386941745383e-11
1.525000000000000799e-01,2.479782427566092351e-01,3.713088719849356512e+00,1.365489172881254974e-11,0.000000000000000000e+00,-1.863283931497718622e-11
1.550000000000000822e-01,2.573053022354795383e-01,3.791352047053074159e+00,9.676522451358215875e-12,0.000000000000000000e+00,-2.044002762831020711e-11
1.575000000000000844e-01,2.668282281619289154e-01,3.869982006707017863e+00,5.810553318127709170e-12,0.000000000000000000e+00,-2.250856561840565152e-11
1.600000000000000866e-01,2.765479371278906084e-01,3.948978617782719525e+00,3.578890510367722053e-12,0.000000000000000000e+00,-2.486569811468773104e-11
1.625000000000000888e-01,2.864653457724263275e-01,4.028341898730644743e+00,-1.278106325454103166e-12,0.000000000000000000e+00,-2.755679651503784493e-11
1.650000000000000910e-01,2.965813707804077493e-01,4.108071867433629620e+00,6.370651817540051011e-13,0.000000000000000000e+00,-3.062655601838939230e-11
1.675000000000000933e-01,3.068969288810643459e-01,4.188168541131602751e+00,-7.319488670103420341e-12,0.000000000000000000e+00,-3.416824930347747773e-11
1.700000000000000955e-01,3.174129368463263767e-01,4.268631936318747044e+00,-2.125654673100871960e-11,0.000000000000000000e+00,-3.821691725994142568e-11
1.725000000000000977e-01,3.281303114888952099e-01,4.349462068612846011e+00,-3.427970356369600610e-11,0.000000000000000000e+00,-4.279075315782508195e-11
1.750000000000000999e-01,3.390499696599947321e-01,4.430658952661088890e+00,-3.406719718668841755e-11,0.000000000000000000e+00,-4.790146798662460412e-11
1.775000000000001021e-01,3.501728282467780895e-01,4.512222601766136876e+00,-3.635441145847910010e-11,0.000000000000000000e+00,-5.364528239022848389e-11
1.800000000000001044e-01,3.614998041689094221e-01,4.594153027826131996e+00,-5.133058265196735608e-11,0.000000000000000000e+00,-6.008945601558146430e-11
1.825000000000001066e-01,3.730318143742656356e-01,4.676450240512203926e+00,-7.205227657577097682e-11,0.000000000000000000e+00,-6.729205297104633630e-11
1.850000000000001088e-01,3.847697758349439834e-01,4.759114248346580922e+00,-5.088105322614848799e-11,0.000000000000000000e+00,-7.514568906226292483e-11
1.875000000000001110e-01,3.967146055425651574e-01,4.842145057031261857e+00,-6.272087121604927145e-11,0.000000000000000000e+00,-8.404949079386129881e-11
1.900000000000001132e-01,4.088672205015094208e-01,4.925542669432551257e+00,-3.492117876563517824e-11,0.000000000000000000e+00,-9.401612888947380374e-11
1.925000000000001155e-01,4.212285377215666538e-01,5.009307085088672729e+00,-1.351461672146226055e-11,0.000000000000000000e+00,-1.056080012772080503e-10
1.950000000000001177e-01,4.337994742093135847e-01,5.093438299642266465e+00,8.552307843032966185e-12,0.000000000000000000e+00,-1.194015932135927470e-10
1.975000000000001199e-01,4.465809469580274693e-01,5.177936304187240601e+00,1.369629939673438441e-11,0.000000000000000000e+00,-1.360393783865341775e-10
2.000000000000001221e-01,4.595738729359146180e-01,5.262801084519982631e+00,6.659147033216667442e-11,0.000000000000000000e+00,-1.561883755599717075e-10
2.025000000000001243e-01,4.727791690118842149e-01,5.348031662239831618e+00,7.495298460788506789e-11,0.000000000000000000e+00,-1.807378092718263185e-10
2.050000000000001266e-01,4.861977485842794433e-01,5.433626923625171301e+00,7.866925689336602986e-11,0.000000000000000000e+00,-2.102541075051486763e-10
2.075000000000001288e-01,4.998305232424342104e-01,5.519586655638402561e+00,6.068283148876350131e-11,0.000000000000000000e+00,-2.447666998574184706e-10
2.100000000000001310e-01,5.136784040393417294e-01,5.605910639430848441e+00,5.070437765389422611e-11,0.000000000000000000e+00,-2.842349192149480130e-10
2.125000000000001332e-01,5.277423616363177139e-01,5.692493737593630421e+00,3.281928984760403088e-11,0.000000000000000000e+00,-3.284185250812476282e-10
2.150000000000001354e-01,5.420227086166811148e-01,5.778910273633964145e+00,2.405684262967602717e-11,0.000000000000000000e+00,-3.770460251981193523e-10
2.175000000000001377e-01,5.565189754940103040e-01,5.865112838325749145e+00,3.935588618460308350e-11,0.000000000000000000e+00,-4.297299356686445658e-10
2.200000000000001399e-01,5.712306273811846857e-01,5.951100303200691499e+00,1.399201337333098035e-11,0.000000000000000000e+00,-4.892442297337449146e-10
2.225000000000001421e-01,5.861571254282615939e-01,6.036873235885051869e+00,-4.640211385202359384e-11,0.000000000000000000e+00,-5.550993624970149942e-10
2.250000000000001443e-01,6.012979341402980848e-01,6.122431893190442231e+00,-8.724914640433065968e-11,0.000000000000000000e+00,-6.263737667811435076e-10
2.275000000000001465e-01,6.166525178486004233e-01,6.207776371500175472e+00,-4.666948004918318581e-11,0.000000000000000000e+00,-7.023933923071631651e-10
2.300000000000001488e-01,6.322203412225404495e-01,6.292906965662036001e+00,-4.139250644107552541e-11,0.000000000000000000e+00,-7.829819479184546033e-10
2.325000000000001510e-01,6.480008698048878024e-01,6.377824246917761286e+00,-2.080064218411064336e-11,0.000000000000000000e+00,-8.676296948831740946e-10
2.350000000000001532e-01,6.639935707533191067e-01,6.462529162267563798e+00,-6.514982321303859334e-11,0.000000000000000000e+00,-9.558797486473019640e-10
2.375000000000001554e-01,6.801979138430352956e-01,6.547023158389230879e+00,-5.042125412171597484e-11,0.000000000000000000e+00,-1.046715235841388733e-09
2.400000000000001577e-01,6.966133727904255668e-01,6.631308504711641127e+00,-5.500013079387341115e-11,0.000000000000000000e+00,-1.140292799249886835e-09
2.425000000000001599e-01,7.132394278794923492e-01,6.715389343918384490e+00,-3.124317491262361065e-11,0.000000000000000000e+00,-1.236744551332576401e-09
2.450000000000001621e-01,7.300755704252086531e-01,6.799268522075888832e+00,-4.884063719813380519e-11,0.000000000000000000e+00,-1.336354670787464323e-09
2.475000000000001643e-01,7.471212966240143860e-01,6.882944938588430261e+00,-2.614290321838755479e-11,0.000000000000000000e+00,-1.439217105303609558e-09
2.500000000000001665e-01,7.643760976740485713e-01,6.966413547767844605e+00,-3.535050961574906929e-11,0.000000000000000000e+00,-1.545944082992771630e-09
2.525000000000001688e-01,7.818394497935189369e-01,7.049670416209386836e+00,1.270510312312589009e-11,0.000000000000000000e+00,-1.656539236799362216e-09
2.550000000000001710e-01,7.995108244286488475e-01,7.132716267882401873e+00,-8.741295336341354683e-12,0.000000000000000000e+00,-1.771110016602910656e-09
2.575000000000001732e-01,8.173896937074019986e-01,7.215550499017569841e+00,-5.651388783357267206e-11,0.000000000000000000e+00,-1.889450273404967901e-09
2.600000000000001754e-01,8.354755282223053081e-01,7.298172504051315457e+00,-4.900839389126315114e-11,0.000000000000000000e+00,-2.011097064417126218e-09
2.625000000000001776e-01,8.537677970818959849e-01,7.380581736734646903e+00,-6.579965105073383728e-11,0.000000000000000000e+00,-2.135923955611943401e-09
2.650000000000001799e-01,8.722659680648684466e-01,7.462777712672735042e+00,4.733884021823050249e-11,0.000000000000000000e+00,-2.263734550190456890e-09
2.675000000000001821e-01,8.909695077726815793e-01,7.544760005807094494e+00,1.538392131062077289e-10,0.000000000000000000e+00,-2.394769998314670366e-09
2.700000000000001843e-01,9.098778817735039270e-01,7.626528245128848305e+00,9.488351627968263820e-11,0.000000000000000000e+00,-2.529250163378850013e-09
2.725000000000001865e-01,9.289905547380649109e-01,7.708082111607158282e+00,7.224250059159671410e-11,0.000000000000000000e+00,-2.666632918020868334e-09
2.750000000000001887e-01,9.483069905679424316e-01,7.789421335317712192e+00,3.461788834074173887e-11,0.000000000000000000e+00,-2.806679137541382610e-09
2.775000000000001910e-01,9.678266525167782408e-01,7.870545692757033862e+00,2.276868459177471562e-11,0.000000000000000000e+00,-2.948849106977117847e-09
2.800000000000001932e-01,9.875490033048782701e-01,7.951455004329344156e+00,8.452694845736562222e-11,0.000000000000000000e+00,-3.092860200861689833e-09
2.825000000000001954e-01,1.007473505227622246e+00,8.032149131993536528e+00,1.019108735800988103e-10,0.000000000000000000e+00,-3.238668709641610544e-09
2.850000000000001976e-01,1.027599620258076607e+00,8.112627977058409101e+00,2.367872795446414647e-10,0.000000000000000000e+00,-3.386058062028627191e-09
2.875000000000001998e-01,1.047926810144173881e+00,8.192891478115640780e+00,2.158091817227149015e-10,0.000000000000000000e+00,-3.535033887717772400e-09
2.900000000000002021e-01,1.068454536500798913e+00,8.272939609100513181e+00,1.566838398260064765e-10,0.000000000000000000e+00,-3.685258739460461438e-09
2.925000000000002043e-01,1.089182260897095134e+00,8.352772377470914833e+00,2.350065974615137564e-10,0.000000000000000000e+00,-3.836071950538177945e-09
2.950000000000002065e-01,1.110109444939281209e+00,8.432389822496068277e+00,3.612958345568522963e-10,0.000000000000000000e+00,-3.987392786229476717e-09
2.975000000000002087e-01,1.131235550349249053e+00,8.511792013647280442e+00,4.234908228354496001e-10,0.000000000000000000e+00,-4.139073139181272538e-09
3.000000000000002109e-01,1.152560039039192130e+00,8.590979049082919872e+00,5.506616617346792122e-10,0.000000000000000000e+00,-4.291032482287613585e-09
3.025000000000002132e-01,1.174082373310593841e+00,8.669952879625119735e+00,5.558406086538514862e-10,0.000000000000000000e+00,-4.443205876507448501e-09
3.050000000000002154e-01,1.195802022224512262e+00,8.748715493285709854e+00,4.499556048728601481e-10,0.000000000000000000e+00,-4.595359028158679993e-09
3.075000000000002176e-01,1.217718457819452649e+00,8.827267026471441014e+00,5.783273739389919701e-10,0.000000000000000000e+00,-4.747147130383443219e-09
3.100000000000002198e-01,1.239831152464244246e+00,8.905607596851563557e+00,5.480614500917066345e-10,0.000000000000000000e+00,-4.898551275628124766e-09
3.125000000000002220e-01,1.262139578811573459e+00,8.983737304020131376e+00,3.717333423067107086e-10,0.000000000000000000e+00,-5.049339246495797428e-09
3.150000000000002243e-01,1.284643209753156823e+00,9.061656230130212819e+00,4.095964396576999183e-10,0.000000000000000000e+00,-5.199152079968346220e-09
3.175000000000002265e-01,1.307341518376483602e+00,9.139364440501367426e+00,6.455132810192425503e-10,0.000000000000000000e+00,-5.347880560247442763e-09
3.200000000000002287e-01,1.330233977923063859e+00,9.216861984201786484e+00,5.632712484143381360e-10,0.000000000000000000e+00,-5.495835714357525051e-09
3.225000000000002309e-01,1.353320061748117364e+00,9.294148894605532618e+00,5.177337044340730021e-10,0.000000000000000000e+00,-5.642747485477124027e-09
3.250000000000002331e-01,1.376599243281641849e+00,9.371225189926907007e+00,2.502978764254080219e-10,0.000000000000000000e+00,-5.788428302542584782e-09
